#time (s) normalized amplitude
0.000000000e+00 0.000000000e+00
2.000000000e-10 6.666666667e-02
4.000000000e-10 1.333333333e-01
6.000000000e-10 2.000000000e-01
8.000000000e-10 2.666666667e-01
1.000000000e-09 3.333333333e-01
1.200000000e-09 4.000000000e-01
1.400000000e-09 4.666666667e-01
1.600000000e-09 5.333333333e-01
1.800000000e-09 6.000000000e-01
2.000000000e-09 6.666666667e-01
2.200000000e-09 7.333333333e-01
2.400000000e-09 8.000000000e-01
2.600000000e-09 8.666666667e-01
2.800000000e-09 9.333333333e-01
3.000000000e-09 1.000000000e+00
3.200000000e-09 9.508586479e-01
3.400000000e-09 9.062501219e-01
3.600000000e-09 8.657435145e-01
3.800000000e-09 8.289489233e-01
4.000000000e-09 7.955135484e-01
4.200000000e-09 7.651181619e-01
4.400000000e-09 7.374739133e-01
4.600000000e-09 7.123194381e-01
4.800000000e-09 6.894182428e-01
5.000000000e-09 6.685563378e-01
5.200000000e-09 6.495400960e-01
5.400000000e-09 6.321943148e-01
5.600000000e-09 6.163604632e-01
5.800000000e-09 6.018950949e-01
6.000000000e-09 5.886684131e-01
6.200000000e-09 5.765629712e-01
6.400000000e-09 5.654724982e-01
6.600000000e-09 5.553008344e-01
6.800000000e-09 5.459609698e-01
7.000000000e-09 5.373741730e-01
7.200000000e-09 5.294692037e-01
7.400000000e-09 5.221815996e-01
7.600000000e-09 5.154530316e-01
7.800000000e-09 5.092307198e-01
8.000000000e-09 5.034669059e-01
8.200000000e-09 4.981183750e-01
8.400000000e-09 4.931460234e-01
8.600000000e-09 4.885144671e-01
8.800000000e-09 4.841916884e-01
9.000000000e-09 4.801487149e-01
9.200000000e-09 4.763593301e-01
9.400000000e-09 4.727998110e-01
9.600000000e-09 4.694486910e-01
9.800000000e-09 4.662865450e-01
1.000000000e-08 4.632957950e-01
1.020000000e-08 4.604605348e-01
1.040000000e-08 4.577663703e-01
1.060000000e-08 4.552002762e-01
1.080000000e-08 4.527504652e-01
1.100000000e-08 4.504062707e-01
1.120000000e-08 4.481580399e-01
1.140000000e-08 4.459970371e-01
1.160000000e-08 4.439153569e-01
1.180000000e-08 4.419058450e-01
1.200000000e-08 4.399620264e-01
1.220000000e-08 4.380780414e-01
1.240000000e-08 4.362485865e-01
1.260000000e-08 4.344688617e-01
1.280000000e-08 4.327345227e-01
1.300000000e-08 4.310416372e-01
1.320000000e-08 4.293866459e-01
1.340000000e-08 4.277663273e-01
1.360000000e-08 4.261777650e-01
1.380000000e-08 4.246183190e-01
1.400000000e-08 4.230855993e-01
1.420000000e-08 4.215774422e-01
1.440000000e-08 4.200918888e-01
1.460000000e-08 4.186271653e-01
1.480000000e-08 4.171816656e-01
1.500000000e-08 4.157539352e-01
1.520000000e-08 4.143426568e-01
1.540000000e-08 4.129466376e-01
1.560000000e-08 4.115647967e-01
1.580000000e-08 4.101961552e-01
1.600000000e-08 4.088398261e-01
1.620000000e-08 4.074950057e-01
1.640000000e-08 4.061609657e-01
1.660000000e-08 4.048370457e-01
1.680000000e-08 4.035226474e-01
1.700000000e-08 4.022172278e-01
1.720000000e-08 4.009202950e-01
1.740000000e-08 3.996314023e-01
1.760000000e-08 3.983501446e-01
1.780000000e-08 3.970761544e-01
1.800000000e-08 3.958090976e-01
1.820000000e-08 3.945486712e-01
1.840000000e-08 3.932945997e-01
1.860000000e-08 3.920466328e-01
1.880000000e-08 3.908045429e-01
1.900000000e-08 3.895681228e-01
1.920000000e-08 3.883371843e-01
1.940000000e-08 3.871115555e-01
1.960000000e-08 3.858910802e-01
1.980000000e-08 3.846756158e-01
2.000000000e-08 3.834650322e-01
2.020000000e-08 3.822592106e-01
2.040000000e-08 3.810580423e-01
2.060000000e-08 3.798614282e-01
2.080000000e-08 3.786692771e-01
2.100000000e-08 3.774815059e-01
2.120000000e-08 3.762980380e-01
2.140000000e-08 3.751188031e-01
2.160000000e-08 3.739437366e-01
2.180000000e-08 3.727727790e-01
2.200000000e-08 3.716058752e-01
2.220000000e-08 3.704429747e-01
2.240000000e-08 3.692840304e-01
2.260000000e-08 3.681289987e-01
2.280000000e-08 3.669778393e-01
2.300000000e-08 3.658305144e-01
2.320000000e-08 3.646869891e-01
2.340000000e-08 3.635472306e-01
2.360000000e-08 3.624112082e-01
2.380000000e-08 3.612788931e-01
2.400000000e-08 3.601502582e-01
2.420000000e-08 3.590252781e-01
2.440000000e-08 3.579039287e-01
2.460000000e-08 3.567861871e-01
2.480000000e-08 3.556720318e-01
2.500000000e-08 3.545614421e-01
2.520000000e-08 3.534543984e-01
2.540000000e-08 3.523508820e-01
2.560000000e-08 3.512508748e-01
2.580000000e-08 3.501543597e-01
2.600000000e-08 3.490613201e-01
2.620000000e-08 3.479717399e-01
2.640000000e-08 3.468856037e-01
2.660000000e-08 3.458028965e-01
2.680000000e-08 3.447236038e-01
2.700000000e-08 3.436477115e-01
2.720000000e-08 3.425752059e-01
2.740000000e-08 3.415060735e-01
2.760000000e-08 3.404403013e-01
2.780000000e-08 3.393778764e-01
2.800000000e-08 3.383187864e-01
2.820000000e-08 3.372630189e-01
2.840000000e-08 3.362105619e-01
2.860000000e-08 3.351614034e-01
2.880000000e-08 3.341155318e-01
2.900000000e-08 3.330729355e-01
2.920000000e-08 3.320336032e-01
2.940000000e-08 3.309975236e-01
2.960000000e-08 3.299646857e-01
2.980000000e-08 3.289350785e-01
3.000000000e-08 3.279086911e-01
3.020000000e-08 3.268855128e-01
3.040000000e-08 3.258655330e-01
3.060000000e-08 3.248487410e-01
3.080000000e-08 3.238351265e-01
3.100000000e-08 3.228246790e-01
3.120000000e-08 3.218173882e-01
3.140000000e-08 3.208132440e-01
3.160000000e-08 3.198122361e-01
3.180000000e-08 3.188143545e-01
3.200000000e-08 3.178195891e-01
3.220000000e-08 3.168279299e-01
3.240000000e-08 3.158393670e-01
3.260000000e-08 3.148538906e-01
3.280000000e-08 3.138714907e-01
3.300000000e-08 3.128921578e-01
3.320000000e-08 3.119158819e-01
3.340000000e-08 3.109426535e-01
3.360000000e-08 3.099724628e-01
3.380000000e-08 3.090053004e-01
3.400000000e-08 3.080411567e-01
3.420000000e-08 3.070800221e-01
3.440000000e-08 3.061218871e-01
3.460000000e-08 3.051667424e-01
3.480000000e-08 3.042145785e-01
3.500000000e-08 3.032653861e-01
3.520000000e-08 3.023191559e-01
3.540000000e-08 3.013758784e-01
3.560000000e-08 3.004355446e-01
3.580000000e-08 2.994981451e-01
3.600000000e-08 2.985636708e-01
3.620000000e-08 2.976321125e-01
3.640000000e-08 2.967034611e-01
3.660000000e-08 2.957777075e-01
3.680000000e-08 2.948548425e-01
3.700000000e-08 2.939348573e-01
3.720000000e-08 2.930177427e-01
3.740000000e-08 2.921034898e-01
3.760000000e-08 2.911920896e-01
3.780000000e-08 2.902835333e-01
3.800000000e-08 2.893778119e-01
3.820000000e-08 2.884749166e-01
3.840000000e-08 2.875748385e-01
3.860000000e-08 2.866775689e-01
3.880000000e-08 2.857830990e-01
3.900000000e-08 2.848914200e-01
3.920000000e-08 2.840025232e-01
3.940000000e-08 2.831164000e-01
3.960000000e-08 2.822330416e-01
3.980000000e-08 2.813524395e-01
4.000000000e-08 2.804745850e-01
4.020000000e-08 2.795994696e-01
4.040000000e-08 2.787270847e-01
4.060000000e-08 2.778574218e-01
4.080000000e-08 2.769904723e-01
4.100000000e-08 2.761262279e-01
4.120000000e-08 2.752646800e-01
4.140000000e-08 2.744058203e-01
4.160000000e-08 2.735496404e-01
4.180000000e-08 2.726961319e-01
4.200000000e-08 2.718452865e-01
4.220000000e-08 2.709970958e-01
4.240000000e-08 2.701515516e-01
4.260000000e-08 2.693086456e-01
4.280000000e-08 2.684683695e-01
4.300000000e-08 2.676307153e-01
4.320000000e-08 2.667956746e-01
4.340000000e-08 2.659632394e-01
4.360000000e-08 2.651334015e-01
4.380000000e-08 2.643061528e-01
4.400000000e-08 2.634814852e-01
4.420000000e-08 2.626593907e-01
4.440000000e-08 2.618398613e-01
4.460000000e-08 2.610228888e-01
4.480000000e-08 2.602084655e-01
4.500000000e-08 2.593965832e-01
4.520000000e-08 2.585872341e-01
4.540000000e-08 2.577804103e-01
4.560000000e-08 2.569761039e-01
4.580000000e-08 2.561743070e-01
4.600000000e-08 2.553750118e-01
4.620000000e-08 2.545782105e-01
4.640000000e-08 2.537838953e-01
4.660000000e-08 2.529920585e-01
4.680000000e-08 2.522026924e-01
4.700000000e-08 2.514157891e-01
4.720000000e-08 2.506313411e-01
4.740000000e-08 2.498493407e-01
4.760000000e-08 2.490697802e-01
4.780000000e-08 2.482926520e-01
4.800000000e-08 2.475179485e-01
4.820000000e-08 2.467456623e-01
4.840000000e-08 2.459757856e-01
4.860000000e-08 2.452083111e-01
4.880000000e-08 2.444432312e-01
4.900000000e-08 2.436805384e-01
4.920000000e-08 2.429202253e-01
4.940000000e-08 2.421622845e-01
4.960000000e-08 2.414067086e-01
4.980000000e-08 2.406534901e-01
5.000000000e-08 2.399026218e-01
5.020000000e-08 2.391540963e-01
5.040000000e-08 2.384079063e-01
5.060000000e-08 2.376640445e-01
5.080000000e-08 2.369225036e-01
5.100000000e-08 2.361832764e-01
5.120000000e-08 2.354463557e-01
5.140000000e-08 2.347117343e-01
5.160000000e-08 2.339794050e-01
5.180000000e-08 2.332493606e-01
5.200000000e-08 2.325215941e-01
5.220000000e-08 2.317960983e-01
5.240000000e-08 2.310728661e-01
5.260000000e-08 2.303518905e-01
5.280000000e-08 2.296331644e-01
5.300000000e-08 2.289166809e-01
5.320000000e-08 2.282024329e-01
5.340000000e-08 2.274904134e-01
5.360000000e-08 2.267806155e-01
5.380000000e-08 2.260730322e-01
5.400000000e-08 2.253676567e-01
5.420000000e-08 2.246644821e-01
5.440000000e-08 2.239635014e-01
5.460000000e-08 2.232647079e-01
5.480000000e-08 2.225680947e-01
5.500000000e-08 2.218736550e-01
5.520000000e-08 2.211813821e-01
5.540000000e-08 2.204912692e-01
5.560000000e-08 2.198033094e-01
5.580000000e-08 2.191174962e-01
5.600000000e-08 2.184338229e-01
5.620000000e-08 2.177522826e-01
5.640000000e-08 2.170728689e-01
5.660000000e-08 2.163955750e-01
5.680000000e-08 2.157203943e-01
5.700000000e-08 2.150473203e-01
5.720000000e-08 2.143763464e-01
5.740000000e-08 2.137074660e-01
5.760000000e-08 2.130406726e-01
5.780000000e-08 2.123759596e-01
5.800000000e-08 2.117133206e-01
5.820000000e-08 2.110527492e-01
5.840000000e-08 2.103942388e-01
5.860000000e-08 2.097377831e-01
5.880000000e-08 2.090833755e-01
5.900000000e-08 2.084310098e-01
5.920000000e-08 2.077806796e-01
5.940000000e-08 2.071323785e-01
5.960000000e-08 2.064861001e-01
5.980000000e-08 2.058418383e-01
6.000000000e-08 2.051995865e-01
6.020000000e-08 2.045593387e-01
6.040000000e-08 2.039210886e-01
6.060000000e-08 2.032848299e-01
6.080000000e-08 2.026505563e-01
6.100000000e-08 2.020182618e-01
6.120000000e-08 2.013879402e-01
6.140000000e-08 2.007595852e-01
6.160000000e-08 2.001331907e-01
6.180000000e-08 1.995087507e-01
6.200000000e-08 1.988862590e-01
6.220000000e-08 1.982657095e-01
6.240000000e-08 1.976470963e-01
6.260000000e-08 1.970304132e-01
6.280000000e-08 1.964156542e-01
6.300000000e-08 1.958028133e-01
6.320000000e-08 1.951918846e-01
6.340000000e-08 1.945828621e-01
6.360000000e-08 1.939757398e-01
6.380000000e-08 1.933705117e-01
6.400000000e-08 1.927671721e-01
6.420000000e-08 1.921657149e-01
6.440000000e-08 1.915661344e-01
6.460000000e-08 1.909684247e-01
6.480000000e-08 1.903725798e-01
6.500000000e-08 1.897785941e-01
6.520000000e-08 1.891864617e-01
6.540000000e-08 1.885961768e-01
6.560000000e-08 1.880077337e-01
6.580000000e-08 1.874211265e-01
6.600000000e-08 1.868363497e-01
6.620000000e-08 1.862533974e-01
6.640000000e-08 1.856722641e-01
6.660000000e-08 1.850929439e-01
6.680000000e-08 1.845154313e-01
6.700000000e-08 1.839397206e-01
6.720000000e-08 1.833658062e-01
6.740000000e-08 1.827936824e-01
6.760000000e-08 1.822233438e-01
6.780000000e-08 1.816547847e-01
6.800000000e-08 1.810879995e-01
6.820000000e-08 1.805229828e-01
6.840000000e-08 1.799597291e-01
6.860000000e-08 1.793982327e-01
6.880000000e-08 1.788384883e-01
6.900000000e-08 1.782804903e-01
6.920000000e-08 1.777242334e-01
6.940000000e-08 1.771697121e-01
6.960000000e-08 1.766169209e-01
6.980000000e-08 1.760658545e-01
7.000000000e-08 1.755165075e-01
7.020000000e-08 1.749688746e-01
7.040000000e-08 1.744229503e-01
7.060000000e-08 1.738787293e-01
7.080000000e-08 1.733362064e-01
7.100000000e-08 1.727953763e-01
7.120000000e-08 1.722562336e-01
7.140000000e-08 1.717187731e-01
7.160000000e-08 1.711829895e-01
7.180000000e-08 1.706488777e-01
7.200000000e-08 1.701164323e-01
7.220000000e-08 1.695856482e-01
7.240000000e-08 1.690565203e-01
7.260000000e-08 1.685290432e-01
7.280000000e-08 1.680032120e-01
7.300000000e-08 1.674790215e-01
7.320000000e-08 1.669564664e-01
7.340000000e-08 1.664355418e-01
7.360000000e-08 1.659162426e-01
7.380000000e-08 1.653985636e-01
7.400000000e-08 1.648824999e-01
7.420000000e-08 1.643680463e-01
7.440000000e-08 1.638551979e-01
7.460000000e-08 1.633439497e-01
7.480000000e-08 1.628342966e-01
7.500000000e-08 1.623262337e-01
7.520000000e-08 1.618197560e-01
7.540000000e-08 1.613148586e-01
7.560000000e-08 1.608115365e-01
7.580000000e-08 1.603097848e-01
7.600000000e-08 1.598095987e-01
7.620000000e-08 1.593109732e-01
7.640000000e-08 1.588139035e-01
7.660000000e-08 1.583183847e-01
7.680000000e-08 1.578244120e-01
7.700000000e-08 1.573319805e-01
7.720000000e-08 1.568410855e-01
7.740000000e-08 1.563517221e-01
7.760000000e-08 1.558638856e-01
7.780000000e-08 1.553775713e-01
7.800000000e-08 1.548927742e-01
7.820000000e-08 1.544094898e-01
7.840000000e-08 1.539277134e-01
7.860000000e-08 1.534474401e-01
7.880000000e-08 1.529686653e-01
7.900000000e-08 1.524913844e-01
7.920000000e-08 1.520155926e-01
7.940000000e-08 1.515412854e-01
7.960000000e-08 1.510684580e-01
7.980000000e-08 1.505971060e-01
8.000000000e-08 1.501272246e-01
8.020000000e-08 1.496588093e-01
8.040000000e-08 1.491918555e-01
8.060000000e-08 1.487263587e-01
8.080000000e-08 1.482623142e-01
8.100000000e-08 1.477997177e-01
8.120000000e-08 1.473385645e-01
8.140000000e-08 1.468788502e-01
8.160000000e-08 1.464205702e-01
8.180000000e-08 1.459637201e-01
8.200000000e-08 1.455082955e-01
8.220000000e-08 1.450542918e-01
8.240000000e-08 1.446017047e-01
8.260000000e-08 1.441505297e-01
8.280000000e-08 1.437007624e-01
8.300000000e-08 1.432523984e-01
8.320000000e-08 1.428054334e-01
8.340000000e-08 1.423598630e-01
8.360000000e-08 1.419156828e-01
8.380000000e-08 1.414728886e-01
8.400000000e-08 1.410314758e-01
8.420000000e-08 1.405914404e-01
8.440000000e-08 1.401527779e-01
8.460000000e-08 1.397154841e-01
8.480000000e-08 1.392795547e-01
8.500000000e-08 1.388449855e-01
8.520000000e-08 1.384117721e-01
8.540000000e-08 1.379799105e-01
8.560000000e-08 1.375493963e-01
8.580000000e-08 1.371202254e-01
8.600000000e-08 1.366923935e-01
8.620000000e-08 1.362658965e-01
8.640000000e-08 1.358407303e-01
8.660000000e-08 1.354168906e-01
8.680000000e-08 1.349943733e-01
8.700000000e-08 1.345731744e-01
8.720000000e-08 1.341532896e-01
8.740000000e-08 1.337347149e-01
8.760000000e-08 1.333174463e-01
8.780000000e-08 1.329014795e-01
8.800000000e-08 1.324868107e-01
8.820000000e-08 1.320734356e-01
8.840000000e-08 1.316613504e-01
8.860000000e-08 1.312505509e-01
8.880000000e-08 1.308410331e-01
8.900000000e-08 1.304327931e-01
8.920000000e-08 1.300258268e-01
8.940000000e-08 1.296201303e-01
8.960000000e-08 1.292156997e-01
8.980000000e-08 1.288125309e-01
9.000000000e-08 1.284106200e-01
9.020000000e-08 1.280099632e-01
9.040000000e-08 1.276105565e-01
9.060000000e-08 1.272123959e-01
9.080000000e-08 1.268154777e-01
9.100000000e-08 1.264197979e-01
9.120000000e-08 1.260253527e-01
9.140000000e-08 1.256321382e-01
9.160000000e-08 1.252401505e-01
9.180000000e-08 1.248493860e-01
9.200000000e-08 1.244598406e-01
9.220000000e-08 1.240715107e-01
9.240000000e-08 1.236843924e-01
9.260000000e-08 1.232984820e-01
9.280000000e-08 1.229137756e-01
9.300000000e-08 1.225302696e-01
9.320000000e-08 1.221479602e-01
9.340000000e-08 1.217668436e-01
9.360000000e-08 1.213869162e-01
9.380000000e-08 1.210081742e-01
9.400000000e-08 1.206306139e-01
9.420000000e-08 1.202542316e-01
9.440000000e-08 1.198790237e-01
9.460000000e-08 1.195049865e-01
9.480000000e-08 1.191321163e-01
9.500000000e-08 1.187604095e-01
9.520000000e-08 1.183898625e-01
9.540000000e-08 1.180204717e-01
9.560000000e-08 1.176522334e-01
9.580000000e-08 1.172851440e-01
9.600000000e-08 1.169192001e-01
9.620000000e-08 1.165543979e-01
9.640000000e-08 1.161907339e-01
9.660000000e-08 1.158282046e-01
9.680000000e-08 1.154668064e-01
9.700000000e-08 1.151065359e-01
9.720000000e-08 1.147473894e-01
9.740000000e-08 1.143893635e-01
9.760000000e-08 1.140324547e-01
9.780000000e-08 1.136766595e-01
9.800000000e-08 1.133219744e-01
9.820000000e-08 1.129683960e-01
9.840000000e-08 1.126159208e-01
9.860000000e-08 1.122645454e-01
9.880000000e-08 1.119142663e-01
9.900000000e-08 1.115650801e-01
9.920000000e-08 1.112169834e-01
9.940000000e-08 1.108699728e-01
9.960000000e-08 1.105240449e-01
9.980000000e-08 1.101791964e-01
1.000000000e-07 1.098354238e-01
1.002000000e-07 1.094927239e-01
1.004000000e-07 1.091510932e-01
1.006000000e-07 1.088105284e-01
1.008000000e-07 1.084710263e-01
1.010000000e-07 1.081325834e-01
1.012000000e-07 1.077951965e-01
1.014000000e-07 1.074588623e-01
1.016000000e-07 1.071235776e-01
1.018000000e-07 1.067893389e-01
1.020000000e-07 1.064561431e-01
1.022000000e-07 1.061239869e-01
1.024000000e-07 1.057928671e-01
1.026000000e-07 1.054627804e-01
1.028000000e-07 1.051337236e-01
1.030000000e-07 1.048056936e-01
1.032000000e-07 1.044786870e-01
1.034000000e-07 1.041527007e-01
1.036000000e-07 1.038277316e-01
1.038000000e-07 1.035037763e-01
1.040000000e-07 1.031808319e-01
1.042000000e-07 1.028588951e-01
1.044000000e-07 1.025379628e-01
1.046000000e-07 1.022180318e-01
1.048000000e-07 1.018990990e-01
1.050000000e-07 1.015811614e-01
1.052000000e-07 1.012642157e-01
1.054000000e-07 1.009482590e-01
1.056000000e-07 1.006332881e-01
1.058000000e-07 1.003192999e-01
1.060000000e-07 1.000062914e-01
1.062000000e-07 9.969425958e-02
1.064000000e-07 9.938320130e-02
1.066000000e-07 9.907311357e-02
1.068000000e-07 9.876399334e-02
1.070000000e-07 9.845583760e-02
1.072000000e-07 9.814864335e-02
1.074000000e-07 9.784240758e-02
1.076000000e-07 9.753712731e-02
1.078000000e-07 9.723279954e-02
1.080000000e-07 9.692942132e-02
1.082000000e-07 9.662698968e-02
1.084000000e-07 9.632550165e-02
1.086000000e-07 9.602495431e-02
1.088000000e-07 9.572534471e-02
1.090000000e-07 9.542666993e-02
1.092000000e-07 9.512892705e-02
1.094000000e-07 9.483211317e-02
1.096000000e-07 9.453622538e-02
1.098000000e-07 9.424126080e-02
1.100000000e-07 9.394721654e-02
1.102000000e-07 9.365408974e-02
1.104000000e-07 9.336187753e-02
1.106000000e-07 9.307057706e-02
1.108000000e-07 9.278018548e-02
1.110000000e-07 9.249069995e-02
1.112000000e-07 9.220211766e-02
1.114000000e-07 9.191443578e-02
1.116000000e-07 9.162765150e-02
1.118000000e-07 9.134176203e-02
1.120000000e-07 9.105676456e-02
1.122000000e-07 9.077265632e-02
1.124000000e-07 9.048943454e-02
1.126000000e-07 9.020709644e-02
1.128000000e-07 8.992563926e-02
1.130000000e-07 8.964506028e-02
1.132000000e-07 8.936535673e-02
1.134000000e-07 8.908652589e-02
1.136000000e-07 8.880856503e-02
1.138000000e-07 8.853147145e-02
1.140000000e-07 8.825524244e-02
1.142000000e-07 8.797987529e-02
1.144000000e-07 8.770536732e-02
1.146000000e-07 8.743171585e-02
1.148000000e-07 8.715891821e-02
1.150000000e-07 8.688697173e-02
1.152000000e-07 8.661587375e-02
1.154000000e-07 8.634562163e-02
1.156000000e-07 8.607621274e-02
1.158000000e-07 8.580764443e-02
1.160000000e-07 8.553991409e-02
1.162000000e-07 8.527301909e-02
1.164000000e-07 8.500695685e-02
1.166000000e-07 8.474172475e-02
1.168000000e-07 8.447732021e-02
1.170000000e-07 8.421374064e-02
1.172000000e-07 8.395098347e-02
1.174000000e-07 8.368904614e-02
1.176000000e-07 8.342792608e-02
1.178000000e-07 8.316762075e-02
1.180000000e-07 8.290812761e-02
1.182000000e-07 8.264944411e-02
1.184000000e-07 8.239156774e-02
1.186000000e-07 8.213449597e-02
1.188000000e-07 8.187822630e-02
1.190000000e-07 8.162275623e-02
1.192000000e-07 8.136808325e-02
1.194000000e-07 8.111420488e-02
1.196000000e-07 8.086111864e-02
1.198000000e-07 8.060882206e-02
1.200000000e-07 8.035731268e-02
1.202000000e-07 8.010658804e-02
1.204000000e-07 7.985664569e-02
1.206000000e-07 7.960748320e-02
1.208000000e-07 7.935909811e-02
1.210000000e-07 7.911148802e-02
1.212000000e-07 7.886465051e-02
1.214000000e-07 7.861858316e-02
1.216000000e-07 7.837328356e-02
1.218000000e-07 7.812874934e-02
1.220000000e-07 7.788497809e-02
1.222000000e-07 7.764196743e-02
1.224000000e-07 7.739971500e-02
1.226000000e-07 7.715821843e-02
1.228000000e-07 7.691747535e-02
1.230000000e-07 7.667748342e-02
1.232000000e-07 7.643824030e-02
1.234000000e-07 7.619974364e-02
1.236000000e-07 7.596199113e-02
1.238000000e-07 7.572498043e-02
1.240000000e-07 7.548870923e-02
1.242000000e-07 7.525317523e-02
1.244000000e-07 7.501837612e-02
1.246000000e-07 7.478430961e-02
